# Parameter sweep (sweep_forward)
# Simulation    : driftdiffusion
# Sweep variable: $Vg
# Data ordering : column
# Data:
# --------------------------------------------------
# Name                     Units          Type
# --------------------------------------------------
# anode.current            A/cm^2         real
# cathode.current          A/cm^2         real
# --------------------------------------------------
#
# $Vg anode.current cathode.current 
0 0 0
0.025 -4.72912e-19 4.72912e-19
0.05 -1.11739e-18 1.11739e-18
0.075 -1.80793e-18 1.80793e-18
0.1 -2.31796e-18 2.31796e-18
0.125 -3.6222e-18 3.6222e-18
0.15 -4.73826e-18 4.73826e-18
0.175 -6.4521e-18 6.4521e-18
0.2 -9.21886e-18 9.21886e-18
0.225 -1.29944e-17 1.29944e-17
0.25 -1.87439e-17 1.87439e-17
0.275 -2.81903e-17 2.81903e-17
0.3 -4.53622e-17 4.53622e-17
0.325 -7.19668e-17 7.19668e-17
0.35 -1.17505e-16 1.17505e-16
0.375 -1.89472e-16 1.89472e-16
0.4 -3.09599e-16 3.09599e-16
0.425 -5.17291e-16 5.17291e-16
0.45 -8.96539e-16 8.96539e-16
0.475 -1.59667e-15 1.59667e-15
0.5 -2.83803e-15 2.83803e-15
0.525 -4.96047e-15 4.96047e-15
0.55 -8.72256e-15 8.72256e-15
0.575 -1.55115e-14 1.55115e-14
0.6 -2.75725e-14 2.75725e-14
0.625 -4.85164e-14 4.85164e-14
0.65 -8.38629e-14 8.38629e-14
0.675 -1.44154e-13 1.44154e-13
0.7 -2.49748e-13 2.49748e-13
0.725 -4.33554e-13 4.33554e-13
0.75 -7.49704e-13 7.49704e-13
0.775 -1.28468e-12 1.28468e-12
0.8 -2.17893e-12 2.17893e-12
0.825 -3.69487e-12 3.69487e-12
0.85 -6.28973e-12 6.28973e-12
0.875 -1.07078e-11 1.07078e-11
0.9 -1.81706e-11 1.81706e-11
0.925 -3.06501e-11 3.06501e-11
0.95 -5.14094e-11 5.14094e-11
0.975 -8.62322e-11 8.62322e-11
1 -1.44868e-10 1.44868e-10
1.025 -2.43243e-10 2.43243e-10
1.05 -4.0744e-10 4.0744e-10
1.075 -6.79922e-10 6.79922e-10
1.1 -1.1311e-09 1.1311e-09
1.125 -1.8809e-09 1.8809e-09
1.15 -3.12818e-09 3.12818e-09
1.175 -5.19813e-09 5.19813e-09
1.2 -8.62349e-09 8.62349e-09
1.225 -1.42775e-08 1.42775e-08
1.25 -2.35981e-08 2.35981e-08
1.275 -3.89575e-08 3.89575e-08
1.3 -6.42451e-08 6.42451e-08
1.325 -1.05786e-07 1.05786e-07
1.35 -1.73805e-07 1.73805e-07
1.375 -2.84615e-07 2.84615e-07
1.4 -4.63949e-07 4.63949e-07
1.425 -7.51602e-07 7.51602e-07
1.45 -1.2079e-06 1.2079e-06
1.475 -1.92271e-06 1.92271e-06
1.5 -3.02549e-06 3.02549e-06
1.525 -4.69625e-06 4.69625e-06
1.55 -7.17244e-06 7.17244e-06
1.575 -1.07464e-05 1.07464e-05
1.6 -1.57452e-05 1.57452e-05
1.625 -2.24821e-05 2.24821e-05
1.65 -3.11428e-05 3.11428e-05
1.675 -4.20549e-05 4.20549e-05
1.7 -5.5211e-05 5.5211e-05
1.725 -7.03561e-05 7.03561e-05
1.75 -8.72141e-05 8.72141e-05
1.775 -0.00010545 0.00010545
1.8 -0.000124736 0.000124736
1.825 -0.000144793 0.000144793
1.85 -0.000165402 0.000165402
1.875 -0.000186404 0.000186404
1.9 -0.000207683 0.000207683
1.925 -0.000229162 0.000229162
1.95 -0.000250785 0.000250785
1.975 -0.000272516 0.000272516
2 -0.000294329 0.000294329
2.025 -0.000316204 0.000316204
2.05 -0.000338131 0.000338131
2.075 -0.000360101 0.000360101
2.1 -0.00038211 0.00038211
2.125 -0.000404156 0.000404156
2.15 -0.000426237 0.000426237
2.175 -0.000448354 0.000448354
2.2 -0.000470509 0.000470509
2.225 -0.000492705 0.000492705
2.25 -0.000514945 0.000514945
2.275 -0.000537233 0.000537233
2.3 -0.000559572 0.000559572
2.325 -0.000581967 0.000581967
2.35 -0.000604423 0.000604423
2.375 -0.000626945 0.000626945
2.4 -0.000649538 0.000649538
2.425 -0.000672174 0.000672174
2.45 -0.000694923 0.000694923
2.475 -0.000717759 0.000717759
2.5 -0.000740687 0.000740687
2.525 -0.000763714 0.000763714
2.55 -0.000786846 0.000786846
2.575 -0.000810087 0.000810087
2.6 -0.000833444 0.000833444
2.625 -0.000856924 0.000856924
2.65 -0.00088053 0.00088053
2.675 -0.000904271 0.000904271
2.7 -0.000928151 0.000928151
2.725 -0.000952177 0.000952177
2.75 -0.000976355 0.000976355
2.775 -0.00100069 0.00100069
2.8 -0.00102519 0.00102519
2.825 -0.00104986 0.00104986
2.85 -0.00107471 0.00107471
2.875 -0.00109974 0.00109974
2.9 -0.00112496 0.00112496
2.925 -0.00115037 0.00115037
2.95 -0.00117599 0.00117599
2.975 -0.00120182 0.00120182
3 -0.00122786 0.00122786
3.025 -0.00125412 0.00125412
3.05 -0.00128062 0.00128062
3.075 -0.00130734 0.00130734
3.1 -0.00133431 0.00133431
3.125 -0.00136153 0.00136153
3.15 -0.00138901 0.00138901
3.175 -0.00141674 0.00141674
3.2 -0.00144475 0.00144475
3.225 -0.00147303 0.00147303
3.25 -0.0015016 0.0015016
3.275 -0.00153045 0.00153045
3.3 -0.00155961 0.00155961
3.325 -0.00158907 0.00158907
3.35 -0.00161885 0.00161885
3.375 -0.00164894 0.00164894
3.4 -0.00167936 0.00167936
3.425 -0.00171012 0.00171012
3.45 -0.00174123 0.00174123
3.475 -0.00177268 0.00177268
3.5 -0.0018045 0.0018045
3.525 -0.00183668 0.00183668
3.55 -0.00186924 0.00186924
3.575 -0.00190218 0.00190218
3.6 -0.00193551 0.00193551
3.625 -0.00196925 0.00196925
3.65 -0.00200339 0.00200339
3.675 -0.00203796 0.00203796
3.7 -0.00207295 0.00207295
3.725 -0.00210838 0.00210838
3.75 -0.00214425 0.00214425
3.775 -0.00218058 0.00218058
3.8 -0.00221737 0.00221737
3.825 -0.00225464 0.00225464
3.85 -0.00229238 0.00229238
3.875 -0.00233063 0.00233063
3.9 -0.00236937 0.00236937
3.925 -0.00240863 0.00240863
3.95 -0.0024484 0.0024484
3.975 -0.00248872 0.00248872
4 -0.00252957 0.00252957
4.025 -0.00257098 0.00257098
4.05 -0.00261296 0.00261296
4.075 -0.00265551 0.00265551
4.1 -0.00269865 0.00269865
4.125 -0.00274239 0.00274239
4.15 -0.00278674 0.00278674
4.175 -0.00283171 0.00283171
4.2 -0.00287731 0.00287731
4.225 -0.00292356 0.00292356
4.25 -0.00297047 0.00297047
4.275 -0.00301804 0.00301804
4.3 -0.00306631 0.00306631
4.325 -0.00311526 0.00311526
4.35 -0.00316493 0.00316493
4.375 -0.00321531 0.00321531
4.4 -0.00326644 0.00326644
4.425 -0.00331831 0.00331831
4.45 -0.00337094 0.00337094
4.475 -0.00342436 0.00342436
4.5 -0.00347856 0.00347856
4.525 -0.00353357 0.00353357
4.55 -0.0035894 0.0035894
4.575 -0.00364607 0.00364607
4.6 -0.00370359 0.00370359
4.625 -0.00376197 0.00376197
4.65 -0.00382124 0.00382124
4.675 -0.00388141 0.00388141
4.7 -0.00394249 0.00394249
4.725 -0.00400451 0.00400451
4.75 -0.00406747 0.00406747
4.775 -0.0041314 0.0041314
4.8 -0.00419632 0.00419632
4.825 -0.00426224 0.00426224
4.85 -0.00432917 0.00432917
4.875 -0.00439715 0.00439715
4.9 -0.00446618 0.00446618
4.925 -0.00453629 0.00453629
4.95 -0.00460749 0.00460749
4.975 -0.00467981 0.00467981
5 -0.00475326 0.00475326
5.025 -0.00482787 0.00482787
5.05 -0.00490366 0.00490366
5.075 -0.00498065 0.00498065
5.1 -0.00505885 0.00505885
5.125 -0.0051383 0.0051383
5.15 -0.005219 0.005219
5.175 -0.005301 0.005301
5.2 -0.0053843 0.0053843
5.225 -0.00546894 0.00546894
5.25 -0.00555494 0.00555494
5.275 -0.00564231 0.00564231
5.3 -0.00573109 0.00573109
5.325 -0.0058213 0.0058213
5.35 -0.00591297 0.00591297
5.375 -0.00600612 0.00600612
5.4 -0.00610078 0.00610078
5.425 -0.00619698 0.00619698
5.45 -0.00629474 0.00629474
5.475 -0.00639409 0.00639409
5.5 -0.00649506 0.00649506
5.525 -0.00659768 0.00659768
5.55 -0.00670198 0.00670198
5.575 -0.00680799 0.00680799
5.6 -0.00691717 0.00691717
5.625 -0.00702671 0.00702671
5.65 -0.00713807 0.00713807
5.675 -0.00725125 0.00725125
5.7 -0.0073663 0.0073663
5.725 -0.00748325 0.00748325
5.75 -0.00760214 0.00760214
5.775 -0.007723 0.007723
5.8 -0.00784586 0.00784586
5.825 -0.00797092 0.00797092
5.85 -0.0080979 0.0080979
5.875 -0.008227 0.008227
5.9 -0.00835824 0.00835824
5.925 -0.00849168 0.00849168
5.95 -0.00862734 0.00862734
5.975 -0.00876527 0.00876527
6 -0.00890552 0.00890552
6.025 -0.00904811 0.00904811
6.05 -0.0091931 0.0091931
6.075 -0.00934053 0.00934053
6.1 -0.00949043 0.00949043
6.125 -0.00964286 0.00964286
6.15 -0.00979786 0.00979786
6.175 -0.00995547 0.00995547
6.2 -0.0101157 0.0101157
6.225 -0.0102787 0.0102787
6.25 -0.0104445 0.0104445
6.275 -0.010613 0.010613
6.3 -0.0107844 0.0107844
6.325 -0.0109587 0.0109587
6.35 -0.011136 0.011136
6.375 -0.0113163 0.0113163
6.4 -0.0114997 0.0114997
6.425 -0.0116862 0.0116862
6.45 -0.0118758 0.0118758
6.475 -0.0120687 0.0120687
6.5 -0.0122649 0.0122649
6.525 -0.0124645 0.0124645
6.55 -0.0126674 0.0126674
6.575 -0.0128739 0.0128739
6.6 -0.0130839 0.0130839
6.625 -0.0132974 0.0132974
6.65 -0.0135147 0.0135147
6.675 -0.0137357 0.0137357
6.7 -0.0139605 0.0139605
6.725 -0.0141891 0.0141891
6.75 -0.0144217 0.0144217
6.775 -0.0146583 0.0146583
6.8 -0.014899 0.014899
6.825 -0.0151438 0.0151438
6.85 -0.0153929 0.0153929
6.875 -0.0156462 0.0156462
6.9 -0.015904 0.015904
6.925 -0.0161662 0.0161662
6.95 -0.016433 0.016433
6.975 -0.0167044 0.0167044
7 -0.0169805 0.0169805
7.025 -0.0172614 0.0172614
7.05 -0.0175471 0.0175471
7.075 -0.0178379 0.0178379
7.1 -0.0181337 0.0181337
7.125 -0.0184346 0.0184346
7.15 -0.0187408 0.0187408
7.175 -0.0190509 0.0190509
7.2 -0.0193702 0.0193702
7.225 -0.0196927 0.0196927
7.25 -0.0200208 0.0200208
7.275 -0.0203547 0.0203547
7.3 -0.0206944 0.0206944
7.325 -0.0210401 0.0210401
7.35 -0.0213918 0.0213918
7.375 -0.0217497 0.0217497
7.4 -0.0221138 0.0221138
7.425 -0.0224844 0.0224844
7.45 -0.0228614 0.0228614
7.475 -0.0232451 0.0232451
7.5 -0.0236355 0.0236355
7.525 -0.0240328 0.0240328
7.55 -0.0244371 0.0244371
7.575 -0.0248484 0.0248484
7.6 -0.0252671 0.0252671
7.625 -0.0256931 0.0256931
7.65 -0.0261266 0.0261266
7.675 -0.0265677 0.0265677
7.7 -0.0270167 0.0270167
7.725 -0.0274736 0.0274736
7.75 -0.0279385 0.0279385
7.775 -0.0284117 0.0284117
7.8 -0.0288933 0.0288933
7.825 -0.0293833 0.0293833
7.85 -0.0298832 0.0298832
7.875 -0.0303909 0.0303909
7.9 -0.0309075 0.0309075
7.925 -0.0314333 0.0314333
7.95 -0.0319684 0.0319684
7.975 -0.0325129 0.0325129
8 -0.0330672 0.0330672
