# angle P exx eyy ezz exz
0 0.0294344 0.0119053 -0.0217791 -0.0217791 -1.16311e-18
1 0.0293963 0.0119136 -0.0217791 -0.0217786 0.000331174
2 0.0292821 0.0119383 -0.0217791 -0.0217772 0.000660243
3 0.0290929 0.0119793 -0.0217791 -0.0217747 0.000985131
4 0.0288299 0.0120363 -0.0217791 -0.0217712 0.00130381
5 0.0284948 0.0121086 -0.0217791 -0.0217667 0.00161434
6 0.0280903 0.0121957 -0.0217791 -0.0217613 0.00191487
7 0.0276189 0.0122969 -0.0217791 -0.0217549 0.00220366
8 0.0270841 0.0124114 -0.0217791 -0.0217475 0.00247913
9 0.0264892 0.0125382 -0.0217791 -0.0217392 0.00273984
10 0.0258379 0.0126764 -0.0217791 -0.0217299 0.00298451
11 0.0251345 0.0128248 -0.0217791 -0.0217197 0.00321203
12 0.024383 0.0129825 -0.0217791 -0.0217085 0.00342146
13 0.0235876 0.0131482 -0.0217791 -0.0216965 0.00361205
14 0.022753 0.0133209 -0.0217791 -0.0216835 0.0037832
15 0.0218832 0.0134995 -0.0217791 -0.0216697 0.00393449
16 0.0209828 0.0136827 -0.0217791 -0.021655 0.00406567
17 0.0200558 0.0138696 -0.0217791 -0.0216395 0.00417661
18 0.0191065 0.014059 -0.0217791 -0.0216231 0.00426735
19 0.0181388 0.0142499 -0.0217791 -0.0216059 0.00433806
20 0.0171566 0.0144413 -0.0217791 -0.021588 0.00438901
21 0.0161633 0.0146324 -0.0217791 -0.0215693 0.00442058
22 0.0151624 0.0148221 -0.0217791 -0.0215498 0.00443325
23 0.0141571 0.0150097 -0.0217791 -0.0215297 0.00442758
24 0.0131504 0.0151945 -0.0217791 -0.0215088 0.0044042
25 0.012145 0.0153756 -0.0217791 -0.0214873 0.00436378
26 0.0111434 0.0155526 -0.0217791 -0.0214651 0.00430705
27 0.0101479 0.0157248 -0.0217791 -0.0214424 0.00423478
28 0.0091606 0.0158916 -0.0217791 -0.021419 0.00414776
29 0.0081834 0.0160526 -0.0217791 -0.0213951 0.00404681
30 0.0072179 0.0162074 -0.0217791 -0.0213706 0.00393274
31 0.0062659 0.0163556 -0.0217791 -0.0213457 0.00380639
32 0.0053284 0.0164968 -0.0217791 -0.0213203 0.0036686
33 0.0044069 0.0166309 -0.0217791 -0.0212944 0.00352019
34 0.0035025 0.0167574 -0.0217791 -0.0212682 0.003362
35 0.002616 0.0168763 -0.0217791 -0.0212416 0.00319483
36 0.0017483 0.0169874 -0.0217791 -0.0212146 0.00301949
37 0.0009002 0.0170904 -0.0217791 -0.0211873 0.00283677
38 7.23e-05 0.0171853 -0.0217791 -0.0211598 0.00264746
39 -0.0007346 0.017272 -0.0217791 -0.021132 0.00245231
40 -0.0015201 0.0173504 -0.0217791 -0.021104 0.00225208
41 -0.0022837 0.0174205 -0.0217791 -0.0210758 0.00204751
42 -0.0030249 0.0174822 -0.0217791 -0.0210475 0.00183932
43 -0.0037431 0.0175356 -0.0217791 -0.0210191 0.00162823
44 -0.004438 0.0175805 -0.0217791 -0.0209907 0.00141494
45 -0.0051092 0.0176171 -0.0217791 -0.0209621 0.00120014
46 -0.0057561 0.0176454 -0.0217791 -0.0209336 0.000984531
47 -0.0063782 0.0176654 -0.0217791 -0.0209051 0.000768787
48 -0.0069752 0.0176771 -0.0217791 -0.0208767 0.000553587
49 -0.0075464 0.0176807 -0.0217791 -0.0208484 0.00033961
50 -0.0080914 0.0176762 -0.0217791 -0.0208203 0.000127529
51 -0.0086094 0.0176636 -0.0217791 -0.0207923 -8.19763e-05
52 -0.0090999 0.0176432 -0.0217791 -0.0207645 -0.000288228
53 -0.0095622 0.017615 -0.0217791 -0.0207369 -0.000490541
54 -0.0099954 0.0175791 -0.0217791 -0.0207097 -0.000688227
55 -0.010399 0.0175357 -0.0217791 -0.0206827 -0.00088059
56 -0.0107718 0.017485 -0.0217791 -0.0206561 -0.00106693
57 -0.0111132 0.0174271 -0.0217791 -0.0206298 -0.00124653
58 -0.0114219 0.0173623 -0.0217791 -0.020604 -0.00141869
59 -0.0116971 0.0172907 -0.0217791 -0.0205786 -0.00158267
60 -0.0119378 0.0172126 -0.0217791 -0.0205536 -0.00173776
61 -0.0121426 0.0171283 -0.0217791 -0.0205292 -0.00188322
62 -0.0123106 0.0170381 -0.0217791 -0.0205053 -0.00201832
63 -0.0124406 0.0169423 -0.0217791 -0.0204819 -0.00214235
64 -0.0125312 0.0168413 -0.0217791 -0.0204591 -0.00225457
65 -0.0125815 0.0167356 -0.0217791 -0.020437 -0.00235429
66 -0.0125902 0.0166255 -0.0217791 -0.0204155 -0.00244081
67 -0.0125561 0.0165115 -0.0217791 -0.0203946 -0.00251348
68 -0.0124783 0.0163942 -0.0217791 -0.0203744 -0.00257167
69 -0.0123557 0.0162742 -0.0217791 -0.020355 -0.00261479
70 -0.0121874 0.016152 -0.0217791 -0.0203363 -0.00264231
71 -0.0119728 0.0160284 -0.0217791 -0.0203183 -0.00265375
72 -0.0117111 0.0159039 -0.0217791 -0.0203012 -0.00264873
73 -0.0114021 0.0157794 -0.0217791 -0.0202848 -0.00262693
74 -0.0110456 0.0156557 -0.0217791 -0.0202693 -0.00258814
75 -0.0106417 0.0155335 -0.0217791 -0.0202546 -0.00253225
76 -0.0101907 0.0154136 -0.0217791 -0.0202408 -0.00245928
77 -0.00969332 0.015297 -0.0217791 -0.0202278 -0.00236938
78 -0.00915076 0.0151845 -0.0217791 -0.0202158 -0.00226285
79 -0.00856434 0.0150769 -0.0217791 -0.0202046 -0.00214011
80 -0.0079358 0.0149752 -0.0217791 -0.0201944 -0.00200177
81 -0.0072674 0.0148802 -0.0217791 -0.0201851 -0.00184857
82 -0.00656178 0.0147926 -0.0217791 -0.0201768 -0.00168144
83 -0.00582169 0.0147133 -0.0217791 -0.0201694 -0.00150144
84 -0.00505063 0.014643 -0.0217791 -0.020163 -0.00130979
85 -0.00425226 0.0145823 -0.0217791 -0.0201575 -0.00110787
86 -0.00343058 0.0145319 -0.0217791 -0.0201531 -0.000897161
87 -0.0025899 0.0144921 -0.0217791 -0.0201496 -0.000679279
88 -0.00173473 0.0144634 -0.0217791 -0.0201471 -0.00045593
89 -0.00086982 0.0144461 -0.0217791 -0.0201456 -0.000228893
90 -6.10904e-18 0.0144403 -0.0217791 -0.0201451 -1.60825e-18
